2.941-2.962 min,,
#Point,X(Thompsons),Y(Counts)
0,30,1168.101318
1,31,1063.185303
2,32,1998.816772
3,33,492.1503906
4,34,533.2424316
5,35,843.2811279
6,36,77.00136566
7,37,203.4794617
8,38,273.9945984
9,39,2996.087402
10,40,877.4324951
11,41.1,8525.052734
12,42.1,6027.373047
13,43.1,3149.485596
14,44,1997.887939
15,45,7135.063477
16,46,2491.709961
17,47,3780.914063
18,48,5338.210938
19,49,555.5557861
20,50,743.4376221
21,51,739.1958618
22,52,399.6612549
23,53,1647.375
24,54,1207.258301
25,55.1,11260.5332
26,56.1,8496.750977
27,57.1,2221.401123
28,58.1,3099.080078
29,59,627.604187
30,60,382.0996399
31,61,4745.558594
32,62,2153.724609
33,63,20790.77734
34,64,820.0102539
35,65,1628.567017
36,65.9,19.50986671
37,66,275.1780396
38,67,2641.516602
39,68,1702.763062
40,69.1,10407.99609
41,70.1,2268.342285
42,71,591.8978882
43,72,813.017395
44,73,922.7044678
45,74,629.3676758
46,75,101.8664093
47,76,141.562851
48,77,800.2738037
49,78,15866.59961
50,79,3728.907715
51,80,1363.64624
52,81.1,2576.587158
53,82.1,4388.30127
54,83.1,4138.004883
55,84.1,1931.817017
56,85.1,1908.00293
57,86,459.2469177
58,87.1,2462.705566
59,88.1,10246.91602
60,89,609.3438721
61,90,52.50030518
62,91,599.6173096
63,92,194.1104126
64,93,655.2570801
65,94,1754.456055
66,95,939.2478638
67,96.1,2050.913818
68,97.1,3428.526855
69,98.1,1179.648438
70,99.1,150.5397644
71,100.1,3869.305908
72,101,262.3556213
73,102,200.0068054
74,102.9,92.26722717
75,104,41.07205963
76,104,15.27879047
77,105,175.88591
78,106,91.10825348
79,107,524.4006348
80,108,461.671814
81,109.1,9900.654297
82,110.1,3441.935547
83,111,426.1864319
84,112,509.4213867
85,113,65.68448639
86,113.1,36.15711212
87,113.2,10.66482639
88,114,339.8554077
89,115,400.1884766
90,116,241.2452087
91,117,36.7888031
92,122,161.4356079
93,123.1,636.7947998
94,124.1,2237.522949
95,125.1,2569.981934
96,126.1,970.6818237
97,127,110.946167
98,128,286.9676514
99,129,22.81023026
100,138.1,52.66725922
101,139.1,23.34596634
102,140,19.07763863
103,140.1,108.4236603
104,141,31.17005539
105,142,38.0553627
106,142.1,70.59932709
107,154,41.08849335
108,154.1,23.88219833
109,155.1,23.32674026
110,156.1,41483.27734
111,157.1,4239.217773
112,158.1,274.0132141
113,171.1,2200.479736
114,172.1,239.9063263
115,192.9,32.47283554
116,207,108.5182495
117,266.9,101.2687607
118,355,54.7195549
3.249-3.292 min,,
#Point,X(Thompsons),Y(Counts)
0,30.1,2185.161133
1,31.1,903.8899536
2,32,2185.169189
3,33,385.401001
4,34,541.7731934
5,35,612.4331665
6,35.9,59.29323959
7,36,8.683544159
8,37,336.5380249
9,38,555.8944092
10,39.1,8956.182617
11,40.1,2273.192383
12,41.1,29423.86523
13,42.1,12484.01758
14,43.1,8403.716797
15,44,2378.451904
16,45,4814.111328
17,46,2091.556396
18,47,2685.751465
19,48,2346.374512
20,49,469.4866028
21,50,962.0164795
22,51,1436.44873
23,52,783.0119629
24,53.1,4943.932617
25,54.1,2429.30835
26,55.1,35025.54297
27,56.1,39987.24219
28,57.1,11023.36328
29,58.1,11909.56934
30,59,853.1420288
31,60,696.8808594
32,61,3217.895752
33,62,1555.447998
34,63,14948.39551
35,64,617.1898804
36,65,1943.054443
37,66,584.0317383
38,67.1,7449.308105
39,68.1,3184.124023
40,69.1,52472.26953
41,70.1,25942.50195
42,71.1,3019.211914
43,72.1,2491.129883
44,73.1,5809.518555
45,74.1,14104.41797
46,75,624.0513306
47,76,140.0718231
48,76,36.44421768
49,77,1381.262573
50,78,12299.72266
51,79,3939.629883
52,80,1612.766235
53,81.1,12995.40723
54,82.1,6659.59375
55,83.1,10033.53613
56,84.1,5481.352539
57,85.1,1376.351196
58,86.1,5478.755859
59,87,439.9332275
60,87.9,20.26834488
61,88.1,733.4708252
62,89,114.0571823
63,89.1,12.4510088
64,90,15.34360123
65,91,1005.882385
66,92,285.9124451
67,93.1,1155.796021
68,94,1740.569214
69,95.1,2390.884277
70,96.1,3871.12793
71,97.1,3495.066162
72,98.1,5656.300293
73,99.1,986.6032715
74,100,868.4120483
75,100.9,13.02687454
76,101,49.13761902
77,102,244.9344635
78,103,121.1347275
79,103.8,13.69424248
80,103.9,43.93960953
81,104,9.717120171
82,105,267.677002
83,106,171.7496948
84,107.1,875.1589966
85,108.1,997.1866455
86,109.1,17042.34375
87,110.1,3556.218018
88,111.1,2230.774658
89,112.1,736.8856812
90,113.1,545.4574585
91,114.1,2312.762451
92,115,411.0122986
93,116,151.1896057
94,120.1,7.346105576
95,121,180.2832794
96,122,12.73595142
97,122.1,327.0426941
98,123.1,4375.35498
99,124.1,3211.168945
100,125.1,1287.049438
101,126.1,22769.71094
102,127.1,2089.231201
103,128,208.48172
104,129,11.72955036
105,133,5.842125893
106,136,36.69896698
107,136.1,51.20630264
108,136.9,8.314342499
109,137,47.0904274
110,137.2,5.647279263
111,138.1,403.0196228
112,139.1,181.4176788
113,140.1,317.4244385
114,141.1,9862.421875
115,142.1,27498.38672
116,143.1,2570.705566
117,144.1,135.3056488
118,144.2,28.68032455
119,153.9,14.46453857
120,155,28.64300537
121,156.1,11423.31543
122,157.1,3048.331299
123,157.9,7.998839378
124,158.1,333.040863
125,159,14.28153324
126,207,160.0907898
3.746-3.800 min,,
#Point,X(Thompsons),Y(Counts)
0,30,269.1665344
1,31,516.7554321
2,32,1570.002686
3,33,211.9225464
4,34,288.8317566
5,35,383.2946472
6,36,540.5826416
7,37.1,4909.769043
8,38.1,5415.000488
9,39.1,11497.52832
10,40,678.3162231
11,41,296.1252136
12,41.9,14.3515501
13,42,202.9393463
14,43,1035.122192
15,44,1459.303833
16,45,2674.682617
17,46,977.7232666
18,47,1587.738159
19,48,1883.296143
20,49.1,8047.817383
21,50.1,47695.43359
22,51.1,65714.57031
23,52.1,20918.81641
24,53,2778.677002
25,53.9,7.964105129
26,54.1,90.75669861
27,54.9,42.71831512
28,55,926.8421631
29,55.9,57.32113266
30,56,310.5983582
31,57,430.3224487
32,57.9,22.41699219
33,58,262.487854
34,58.9,158.5018921
35,59.1,229.8459015
36,60,1638.17688
37,61,15448.99414
38,62,25210.06055
39,63,41403.52734
40,64.5,14052.83984
41,65.9,221.9447174
42,67,103.3749084
43,68,16.85946846
44,69,145.905899
45,69.1,207.7428284
46,70,315.9679565
47,70.9,9.022507668
48,71.1,36.56031418
49,72,732.7230225
50,73,12218.34668
51,74,74333.71875
52,75.1,102784.3281
53,76.1,86719.64844
54,77,19725.95703
55,78,9650.137695
56,79,755.7527466
57,80,404.7330933
58,80.9,15.02481079
59,81,92.35056305
60,81.1,5.686553478
61,81.9,7.89834404
62,82,91.22859955
63,82.9,24.35122871
64,83.1,99.62271118
65,83.9,42.47420883
66,84,1075.994995
67,85,4114.587891
68,86,7493.848145
69,87,9316.456055
70,88,3295.902588
71,89,473.5923157
72,90,1000.200195
73,91,318.2568665
74,92,151.7052155
75,93.9,30.67134285
76,94,152.1349487
77,94.9,4.845417976
78,95,11.19188976
79,96,351.113739
80,97,3649.722412
81,98,18072.87305
82,99,6476.867188
83,100,3986.539063
84,101.1,66083.3125
85,102.1,372125.2188
86,103.1,33932.27344
87,104,1592.375366
88,105,92.61811066
89,105,822.8814087
90,105.9,18.4963913
91,106,83.00666809
92,106.9,60.60219955
93,107.1,11.47521305
94,107.9,22.55064011
95,108,220.7209015
96,109,1080.322388
97,110,1289.71936
98,111,551.4287109
99,112,90.62184143
100,113,3793.782227
101,114,1899.159058
102,115,388.5395813
103,115.9,6.356768608
104,116,105.5746155
105,117,15.20141029
106,117.8,8.22097683
107,118,16.37583733
108,118.9,6.447805882
109,119.1,16.07462692
110,119.9,15.66655254
111,120,95.19457245
112,121.1,5.454805851
113,121.9,43.0392189
114,123,22.05690193
115,124,19.48276711
116,124.9,11.11797523
117,125,99.68862915
118,126.1,281.5343933
119,126.9,15.03879166
120,127,555.1596069
121,128.1,52.8697052
122,129,304546.9063
123,130.1,325145.625
124,131,33201.10547
125,132,2299.569336
126,133,169.2897797
127,134,54.77370834
128,139,120.2484207
129,140,89.84030151
130,141,88.76358795
131,142.1,425.8201294
132,143,14.27230835
133,149,17.15185356
134,150,35.29547501
135,150.8,12.10353184
136,152,35.26995468
137,153.1,13.18984699
138,153.9,5.699776649
139,155,21.30684662
140,155.9,14.24386311
141,156,110.1976776
142,156.2,9.038682938
143,157.1,27.6130619
144,158.1,6.687031746
145,162.9,22.80282021
146,163,5.746620178
147,175.9,4.970518589
148,176.1,24.46783638
149,176.9,18.87046051
150,178,25.32348633
151,190.8,7.06528759
152,191,23.41023445
153,202,92.24176788
154,203,139.9350739
155,204.1,40.89315033
156,204.9,10.47656631
157,207,204.347168
158,208,26.02609444
159,208.8,4.746058464
160,214,20.38528633
161,215,37.29406738
162,231,32.21121979
163,231.1,190.1149902
164,232,21.27658653
165,232.1,21.66506958
166,252.9,272.8426819
167,253.1,20.12233162
168,254,65.95043182
169,254.1,5.004533768
170,255,22.72807121
171,259.1,156.6337128
172,260,41.67395401
173,280.9,20.05953217
174,281,5.076570511
175,281.1,9.806509018
176,330.9,25.63599777
177,331.1,15.3895483
178,345.8,5.198866844
179,346,11.10586262
4.243-4.302 min,,
#Point,X(Thompsons),Y(Counts)
0,30.1,1069.623657
1,31.1,1273.286011
2,32,1359.380371
3,33,127.6169128
4,33.1,11.83692932
5,34,202.4728241
6,35,227.2745819
7,36,207.0300751
8,37.1,2585.203857
9,38.1,5112.890137
10,39.1,18941.68555
11,40.1,1309.347778
12,41.1,950.326416
13,42,422.4802246
14,43,1302.607788
15,44,1426.393433
16,45,1704.939453
17,46,606.3666382
18,47,1060.949219
19,48,1075.803711
20,49.1,3044.179443
21,50.1,29874.74805
22,51.1,70990.39844
23,52.1,18693.54102
24,53,7119.285156
25,54.1,3240.609375
26,55,6168.381348
27,56,100.9304428
28,56.1,585.62677
29,57.5,2805.697998
30,58.9,76.44271088
31,59,47.41267014
32,60,652.7549438
33,61,9073.915039
34,62,24742.57813
35,63,54492.34766
36,64.1,7351.446777
37,65.1,21924.48242
38,66.9,253.5814819
39,68,107.2309265
40,68.9,16.45980072
41,69.1,99.67940521
42,70,143.5584106
43,71,42.33768082
44,71.1,14.67886353
45,71.9,29.51824379
46,72,222.8137207
47,73,4637.575684
48,74,33779.28516
49,75,38088.38672
50,76.1,33035.75
51,77.1,174391.6719
52,78.1,123352.375
53,79.1,9443.717773
54,80,582.0291138
55,81,168.4578705
56,81.9,57.17884827
57,82.1,11.38881207
58,83.1,16.05633926
59,83.9,48.76460266
60,84,776.7611694
61,85,4463.013184
62,86,11511.76465
63,87,15408.28906
64,88,13020.20605
65,89.1,36596.59766
66,90,3635.811768
67,91.1,8985.395508
68,92,1156.585693
69,93,71.56881714
70,94,146.6068268
71,95,10.86211872
72,96,174.3773041
73,97,1336.61084
74,98,6950.483887
75,99,2682.14917
76,100,1091.810547
77,101,14221.36328
78,102.1,76460.03906
79,103.1,269198.5313
80,104.1,128105
81,105.1,20201.00977
82,106,1321.940796
83,107,108.5802002
84,107.9,6.696735382
85,108,221.4029999
86,109,1261.563232
87,110,2224.536865
88,110.9,25.37444496
89,111,1039.804565
90,111.9,66.76559448
91,112.1,92.09860992
92,113,16000.80469
93,114.1,13284.67285
94,115.1,112983.5703
95,116.1,13282.85254
96,117,865.7160034
97,117.9,4.88416338
98,118,73.95007324
99,118.9,61.72937012
100,119,44.34474182
101,119.8,10.64549637
102,120,4.30064106
103,120.8,11.17411518
104,121,17.16744423
105,121.8,4.590301037
106,124.8,6.271558285
107,125,56.10816574
108,125.9,34.10835648
109,126,134.2613678
110,126.2,7.886180878
111,126.9,39.78322983
112,127.1,129.7358551
113,128,37.51000595
114,128.1,234.577713
115,129,20024.51758
116,130.1,7390.888672
117,131.1,516124.8438
118,132.1,320529.1563
119,133.1,31293.24219
120,134.1,2041.588867
121,135,184.5765381
122,136,12.32108021
123,136.9,12.63808346
124,137.1,18.28798103
125,139,16.33784294
126,141.1,25.60391045
127,141.2,4.45599699
128,142.1,178.6394043
129,143,15.25492954
130,143.9,30.06142426
131,144.9,12.63296986
132,145,349.7397461
133,145.9,9.70956707
134,146,219.9592285
135,146.8,16.15016747
136,146.9,78.86748505
137,148.9,30.65142822
138,149,17.76315498
139,149.8,10.52082443
140,150,35.12094498
141,150.9,11.17951488
142,151,17.1428051
143,151.1,10.867939
144,152,49.58691406
145,152.9,21.9865284
146,153.1,12.42935944
147,154,72.26126099
148,154.9,17.595644
149,155,12.60108471
150,156,146.8857269
151,156.8,6.811209202
152,157,26.93629456
153,157.9,12.75870419
154,158,39.06843185
155,158.7,6.027501583
156,158.9,28.10292244
157,159.1,8.379505157
158,160,23.54823112
159,162.9,48.36445236
160,164.9,33.06194687
161,165,102.8746262
162,165.7,10.35698032
163,166,14.67133331
164,169,4.255516052
165,176,9.873849869
166,176.9,64.54701233
167,177.9,27.54232788
168,178,67.70137787
169,178.9,58.71718216
170,179.1,5.430654526
171,181,9.266448021
172,189,16.34004021
173,190.1,17.50760841
174,190.9,35.80385971
175,191,82.84498596
176,191.9,25.6382618
177,192.9,230.2535858
178,193.9,33.31658173
179,194.9,84.27019501
180,195,14.11801434
181,196.1,4.341034889
182,201.9,7.026872635
183,202,32.28192902
184,203,67.22426605
185,204,9.439780235
186,205,23.28326416
187,207,511.9458313
188,207.9,101.6680298
189,208.1,15.65697861
190,209,144.7530365
191,209.1,12.17928028
192,209.9,17.7808094
193,210.8,4.425337791
194,214.9,7.186759949
195,215,13.15250301
196,217,96.35845184
197,217.2,18.29016876
198,218,26.04232597
199,218.1,26.61234856
200,231,73.22021484
201,232.1,10.53513813
202,232.9,16.65284157
203,233.1,21.46351433
204,238.9,7.45125246
205,239,9.865502357
206,245,42.44659042
207,248.8,16.79684067
208,250.8,18.0937748
209,253,745.3884277
210,253.9,91.95929718
211,254,107.0307083
212,254.9,13.49571991
213,255,80.29859161
214,266.9,116.5513
215,267,4.499882698
216,267.9,45.40668106
217,269,63.8798027
218,281,77.95316315
219,281.9,12.63213825
220,282.9,17.18166161
221,314.9,10.02956104
222,326.8,43.74824524
223,327,85.86701202
224,327.9,29.41213799
225,329,15.73550415
226,331,165.7000885
227,332,43.04632187
228,333,13.29499912
229,340.9,15.35620594
230,342.9,5.51892662
231,343,10.85476398
232,346,60.25259018
233,346.1,33.31420135
234,347,20.45448494
235,404.9,5.632194996
236,405,45.20647049
